t(ms),x,y,z
64,6.079600843313983e-16,0.028988553210969048,-4.200021408855744
128,1.1702059230152183e-16,0.028484006377227367,-4.200032317074356
192,-5.197353839595132e-16,0.028171974460890255,-4.2000392011503385
256,-4.570036660625655e-16,0.027979674949554938,-4.20004340860925
320,-2.8903124968452073e-16,0.027859187057978553,-4.200046024396446
384,-2.3190004096127274e-16,0.027783061558865764,-4.200047665134092
448,-6.487565137962989e-16,0.027734769548347207,-4.200048698581771
512,-6.749756694528242e-16,0.027704074656528743,-4.20004935077082
576,-4.3574669153039936e-16,0.02768454647105413,-4.200049762710122
640,-7.938858370071658e-16,0.027672117040867215,-4.200050022996207
704,-7.152416598319242e-16,0.02766420418984619,-4.200050187480642
768,-4.824258630192e-16,0.027659166181010574,-4.200050291426408
832,-2.6085933172676153e-16,0.02765595839054761,-4.200050357112619
896,6.729037452278693e-05,0.02730393583656181,-4.1762723460616415
960,-0.0005007639637706843,0.027447718965581746,-4.149644896773974
1024,-0.00229204134803345,0.027556146360533135,-4.123438968907407
1088,-0.005403488009747931,0.027615366941006567,-4.097576364175697
1152,-0.009902707528395333,0.027647148612667774,-4.072015213530212
1216,-0.01583188750485098,0.02766539886566982,-4.046773215724802
1280,-0.023177227785774628,0.02767636161423124,-4.021939164101838
1344,-0.031923650816090166,0.02768187245147828,-3.99760240413647
1408,-0.04204828293296234,0.0276836508254975,-3.973837826533719
1472,-0.05352402286627467,0.027683295611601072,-3.950721282639733
1536,-0.06631770329833797,0.02768156319421344,-3.9283345042407385
1600,-0.08038902486177155,0.027678699074261494,-3.9067573790745276
1664,-0.0956938102894199,0.02767565663692332,-3.8860660472593285
1728,-0.11219082673533746,0.02767543367279044,-3.8663391281005266
1792,-0.12982606301838967,0.027677227107788537,-3.8476498700882327
1856,-0.14853978362885575,0.027680106143712704,-3.83006798381364
1920,-0.16826828520351483,0.027683537485677402,-3.8136595638200403
1984,-0.18894404913244367,0.027687208433382786,-3.798487301633685
2048,-0.21049584235152968,0.027690892606200383,-3.784610329752199
2112,-0.23284889724821892,0.02769442579129213,-3.7720838077178933
2176,-0.25592505013804545,0.02769770835040928,-3.7609587283177772
2240,-0.2796428377503293,0.0277006819708835,-3.751281784711195
2304,-0.3039402291623428,0.027701707987832346,-3.7430352851077937
2368,-0.32872088303845504,0.027703863280659602,-3.7362879333927173
2432,-0.35389381965369543,0.027704997322645995,-3.7311686980140895
2496,-0.37939188080533953,0.027705834437359078,-3.727687636531866
2560,-0.4050817112563052,0.027706499347892315,-3.725795019345503
2624,-0.43087131019323555,0.02770679005187164,-3.7254842871888356
2688,-0.4566525988201536,0.027706690852894227,-3.726717549320469
2752,-0.4823265409683733,0.027706015624196594,-3.729472278796004
2816,-0.5077978278329054,0.027704899856224197,-3.7337230029181376
2880,-0.5329798810974855,0.027702904024494674,-3.7394681288339613
2944,-0.5577826127861725,0.02770040791060214,-3.7466818412580944
3008,-0.5821186321235273,0.02769738320629519,-3.755337654354277
3072,-0.6059022841406322,0.02769392642619389,-3.7654046635065916
3136,-0.6290434797852666,0.02769035869141348,-3.776830358580076
3200,-0.6514587553714952,0.027686349325571923,-3.7895752433337093
3264,-0.6730689197302002,0.027681978721532205,-3.8035997912816994
3328,-0.6937965524610326,0.027677761377015678,-3.81885967019186
3392,-0.7135619786354895,0.02767659288546285,-3.835313838340772
3456,-0.7322917618642855,0.027677804418246875,-3.8529091543508156
3520,-0.7499162229834293,0.02768036433944433,-3.8715859040395992
3584,-0.7663689701446499,0.027683635039776815,-3.89128028202265
3648,-0.7815871187396972,0.027687221642075426,-3.911924675655703
3712,-0.7955114783720563,0.027690865841756673,-3.9334478308539182
3776,-0.8080867994512323,0.027694392237603862,-3.9557750041764375
3840,-0.8192619781560054,0.027697685530342683,-3.9788280839451837
3904,-0.8289902314275495,0.027700673762442802,-4.002525679976188
3968,-0.8372880019164685,0.027701746779087585,-4.02680569815511
4032,-0.844090329472579,0.027703904256394817,-4.05157273986903
4096,-0.849265565309651,0.02770505630553015,-4.0767331499146655
4160,-0.8528009275409152,0.02770591698525962,-4.102222279806449
4224,-0.8547478370122025,0.02770657678063025,-4.127906383718136
4288,-0.8551114867415047,0.02770686517005206,-4.153694057463608
4352,-0.8539299615691944,0.027706767747813683,-4.179477005629839
4416,-0.8512263601014085,0.02770609728878872,-4.2051558588701266
4480,-0.8470253114652896,0.027704984986252075,-4.2306354689807275
4544,-0.8413301403176494,0.027703011778107044,-4.255828669821892
4608,-0.8341655201949745,0.027700527481298292,-4.2806455446232965
4672,-0.8255578133304325,0.027697513247547774,-4.304998625468147
4736,-0.8155373354324793,0.027694054063563203,-4.328802348458652
4800,-0.8041566403338317,0.027690497978418382,-4.351966555054362
4864,-0.7914555428880553,0.027686498424596022,-4.374407548270726
4928,-0.7774733383343834,0.027682136749734375,-4.396046058299904
4992,-0.7622544053581602,0.02767785236132314,-4.416804679853822
5056,-0.7458396492939612,0.02767657687073053,-4.436603692623132
5120,-0.7282817992443991,0.027677728729425397,-4.4553694701454845
5184,-0.709640430983675,0.02768025726082069,-4.473032222403885
5248,-0.6899792209395891,0.027683513368274397,-4.489525439765201
5312,-0.669365657808193,0.027687095808491637,-4.504786116441787
5376,-0.6478708765928617,0.02769074276897549,-4.518754933225406
5440,-0.6255695061780034,0.027694276472490707,-4.5313765038618605
5504,-0.6025395468027813,0.027697579860697374,-4.5425995821542955
5568,-0.5788622798916789,0.027700579812004328,-4.552377236568516
5632,-0.5545994806686112,0.027701679593792793,-4.56072565257266
5696,-0.5298459721094627,0.027703860774933437,-4.567581301968973
5760,-0.5046972549303137,0.027705020516263012,-4.572810864066027
5824,-0.4792165363011368,0.027705909692462508,-4.576399149640856
5888,-0.45353781213994565,0.027706574784781918,-4.57839911754258
5952,-0.42775202197896073,0.027706872898034543,-4.57881494179319
6016,-0.4019674039859188,0.027706788850011165,-4.577684160421878
6080,-0.37628372864604903,0.02770613283239293,-4.575030768742602
6144,-0.35079595660051277,0.02770503291353505,-4.570878552950126
6208,-0.3255918319345616,0.027703089625814956,-4.565232522485736
6272,-0.3007611009102446,0.02770062325210107,-4.558116221171026
6336,-0.2763912983418305,0.027697624253104788,-4.549555882858674
6400,-0.2525680379246099,0.027694178085813002,-4.539581687131577
6464,-0.22938125818509114,0.027690624708289292,-4.52824525652455
6528,-0.20691503009339524,0.02768663891540562,-4.51558725253047
6592,-0.185248700857071,0.027682288242374314,-4.501646745205764
6656,-0.16445965761591436,0.027677940041754272,-4.486468148461112
6720,-0.14462766615302033,0.027676561020184155,-4.470092228903451
6784,-0.12582653875331107,0.02767765475648451,-4.452571310054693
6848,-0.1081261730138416,0.027680152403548486,-4.433964829425514
6912,-0.09159319366197455,0.02768339395583972,-4.41433633506189
6976,-0.07629072552154555,0.027686972049884892,-4.393753192724513
7040,-0.06227821422952107,0.027690621460128947,-4.372286419470076
7104,-0.049611180189295986,0.027694162114922018,-4.350010530836523
7168,-0.03834100953964108,0.027697475256866645,-4.327003417004546
7232,-0.028514779762137944,0.0277004866183935,-4.303346252122858
7296,-0.020127912363496113,0.027701873775028175,-4.279105299965428
7360,-0.013217346820407838,0.02770374338845831,-4.254365896296041
7424,-0.007931905015474118,0.027704946068885003,-4.229229293212218
7488,-0.004289189165920599,0.027705887002677274,-4.203757363474037
7552,-0.0022346114790090586,0.027706563687108457,-4.178084528516621
7616,-0.0023087466391020052,0.02802364202197058,-4.17789608960138
7680,-0.00236312948589819,0.027855997322433615,-4.177992668814425
7744,-0.00239957992048808,0.027766173638373654,-4.178046628667176
7808,-0.0024218157644096258,0.027717297765081264,-4.178077211266762
7872,-0.0024378340504169474,0.027690784605218257,-4.1780944142214596
7936,-0.002449980496737442,0.027675598934966118,-4.1781044619927545
8000,-0.0024586161334351326,0.027666331310276838,-4.178110615268978
8064,-0.002464528054055148,0.027660512399133134,-4.178114468442833
8128,-0.0024684830801651246,0.02765681958200714,-4.17811690412956
8192,-0.0024710918188298515,0.027654467769340125,-4.178118449676577
8256,-0.0024727984805884527,0.027652968643915678,-4.178119431843018
8320,-0.0024739106937760004,0.027652013008380934,-4.178120056302813
8384,-0.0024746352864230495,0.027651403938213658,-4.17812045335414
8448,-0.002475108729805829,0.027651015833265853,-4.17812070576024
8512,-0.0024754199781136083,0.02765076858023325,-4.1781208661481015
8576,-0.0024756265533164303,0.027650611093132743,-4.178120967997729
8640,-0.0024757654663180003,0.027650510804717296,-4.178121032612914
8704,-0.0024758604647546973,0.027650446957646985,-4.1781210735507734
