t(ms),x,y,z
32,-1.1639708864321053e-16,0.021393650749173675,-4.200010603571028
64,1.880888037258801e-05,0.02237111546237773,-4.192533117161749
96,0.00019821025215575652,0.02314316976547077,-4.176921528729792
128,0.000950747101666686,0.023779450771263862,-4.153304139477056
160,0.0028275356230988632,0.02436355361478648,-4.123460853017405
192,0.007030007705599594,0.025017457551614983,-4.088140214006802
224,0.015187802567486385,0.025938289639693485,-4.047520144959942
256,0.028536984985383002,0.026322830616479522,-4.002346765689731
288,0.04750192529090913,0.02642945102612761,-3.9534990472814835
320,0.07024839244068257,0.026707511601346087,-3.903986331566925
352,0.09496774639697975,0.02684071953105876,-3.8546149966621863
384,0.12163309880990229,0.026942625523509567,-3.805411664295312
416,0.14847266359002387,0.027162047465938283,-3.758554909135009
448,0.17480803409389345,0.02732423222842695,-3.7109198246765747
480,0.20359422853214573,0.027238508076846576,-3.659895546825533
512,0.23376182904663342,0.02750894555403904,-3.6087913398450913
544,0.2627817370151814,0.02788428991462149,-3.559251685900462
576,0.2958606865763247,0.027643207864501647,-3.504379548957008
608,0.3275334213624691,0.02803013869698264,-3.4514514454308753
640,0.3580170066319249,0.028475456737234183,-3.4009606224498747
672,0.3911756275629406,0.028457841100469304,-3.349352100226974
704,0.4240260994660433,0.02824306872831278,-3.295334799533435
736,0.45751420611337057,0.028501241236979107,-3.2422356092065723
768,0.49120634323820017,0.028903854724232136,-3.1923786609015514
800,0.5241642378432054,0.02826630429503603,-3.1416686502401188
832,0.5572902261445275,0.028188165459396612,-3.0904714568326335
864,0.5924798674140165,0.02841634118633714,-3.037660218938015
896,0.6261879098039388,0.028833778751365557,-2.987418252223554
928,0.6614914837757471,0.028584163343625388,-2.935289101894017
960,0.697487883622376,0.028964776420628363,-2.8834817584140877
992,0.7314036083314331,0.028294091115978536,-2.8340131773141795
1024,0.7650446907873437,0.02837318318521012,-2.785573802521165
1056,0.7983660649502091,0.028284171831467378,-2.736272983245805
1088,0.8319109513916871,0.028536501983399677,-2.687406088252397
1120,0.8652988295956198,0.028566557460276185,-2.640345149056399
1152,0.8988067025070832,0.028348073099383427,-2.591887108673382
1184,0.9318648120708807,0.028579625526995975,-2.5450264711694772
1216,0.9647044158047093,0.028548702488882177,-2.4991780719343506
1248,0.9973483510563513,0.028356405042159062,-2.4522180623183
1280,1.028944555716939,0.028509940142863524,-2.4073783507275133
1312,1.0601059766688503,0.028470434210018436,-2.3637367917680727
1344,1.0908184556005127,0.02831365595825846,-2.3197059094716797
1376,1.1209428788648037,0.02837093899515484,-2.2768700492358738
1408,1.1508532431818095,0.028260344176141053,-2.2343736563355607
1440,1.1802311388264286,0.02816063261861104,-2.1925440532717926
1472,1.2089381460397954,0.02818384181591844,-2.151740209059244
1504,1.2372049025527199,0.0281038420552994,-2.111316575588435
1536,1.2648966320984716,0.02803467416464421,-2.0715310131588653
1568,1.29204522670054,0.027992509491836924,-2.0324343240526788
1600,1.318661619857888,0.027949262286451046,-1.9940438896113086
1632,1.3446842558695464,0.027917995637484577,-1.9563065480451454
1664,1.3701034910651824,0.027893124725841253,-1.919222284461323
1696,1.3949733680074579,0.02787185440291344,-1.8828226984517158
1728,1.4192738712667645,0.027856144355877147,-1.8470972995053394
1760,1.4429642834345457,0.02784095382305722,-1.8120138986495746
1792,1.4660760790149447,0.027832426244494182,-1.777593404034747
1824,1.4886327892860418,0.027822357260446722,-1.7438525826759836
1856,1.5106050171647054,0.02781582325080007,-1.7107683765030934
1888,1.5319793828068127,0.027809651167966673,-1.6783317711504635
1920,1.5527876585293188,0.02780603180006185,-1.6465615827102216
1952,1.5730382252757882,0.027801686238769406,-1.6154639428764286
1984,1.593288539262712,0.02776286683772305,-1.5841265683599797
2016,1.6131525498363726,0.027754745427019615,-1.5531449793939893
2048,1.6326126508220387,0.027752280545139445,-1.522578041536362
2080,1.6516662379979363,0.027749807708388613,-1.4924323971990998
2112,1.6702989051754633,0.027747899348297144,-1.462698375634629
2144,1.6890697228230025,0.027710732424640172,-1.4324773624723195
2176,1.7076242210016936,0.027704109513241974,-1.4023780525165828
2208,1.7259251364078314,0.027701868435614882,-1.3724479424251592
2240,1.7439560145271007,0.027700353712216734,-1.342684498877944
2272,1.7614426052942966,0.027716908647557763,-1.3135413630913066
2304,1.7787762864908903,0.027705554840024613,-1.284385443206246
2336,1.7959987029832944,0.02769300689852893,-1.255168330979044
2368,1.8131061993992617,0.02768303174235416,-1.2258807749689735
2400,1.8306171768461932,0.027640211929753362,-1.1956144383024896
2432,1.8481864893007192,0.027628920329666386,-1.1649752258704917
2464,1.8657731015935588,0.02762337712365357,-1.134009378472847
2496,1.8833630968071307,0.027619196267860836,-1.1027182128588429
2528,1.900951801971958,0.027615830362444624,-1.0711014933934986
2560,1.9190419193606563,0.027578168165695915,-1.0382530550380211
2592,1.9373025285282461,0.02757038812354788,-1.0047809372187315
2624,1.9556876107074699,0.027567554282919567,-0.970728823067018
2656,1.9741845154551831,0.02756555567551394,-0.9360995687126336
2688,1.992792678618477,0.027563871380530007,-0.9008959334932449
2720,2.0115102069865136,0.027562360033851006,-0.8651192041678203
2752,2.030332133113883,0.02756105872153901,-0.828768904508705
2784,2.0492545620439597,0.027560011108913842,-0.7918451400685732
2816,2.068275108585218,0.027559148588459745,-0.754348856702877
2848,2.08738959874559,0.02755838208347833,-0.7162800933995966
2880,2.1065926828037314,0.027557739081172622,-0.6776382679839986
2912,2.1258805197330646,0.027557227640481113,-0.638423590698058
2944,2.145249632781728,0.027556775958617424,-0.598636492315497
2976,2.1646950564544074,0.027556351591316655,-0.5582766757610785
3008,2.184211844841942,0.027555989466614816,-0.5173438546715008
3040,2.2037960802287264,0.027555675174710047,-0.4758382808449402
3072,2.2234433044598996,0.027555356687083355,-0.4337599788759463
3104,2.2431482738529946,0.02755504424564076,-0.39110860936437214
3136,2.262906287150512,0.027554757873608154,-0.34788411272527664
3168,2.2827128521589133,0.02755446759873696,-0.3040865700137999
3200,2.302563029105352,0.027554153479791437,-0.25971588139681046
3232,2.322451322650565,0.02755383797926463,-0.21477171581908422
3264,2.342372486486249,0.027553517848251954,-0.16925391049961253
3296,2.3619267672587343,0.02758662697105107,-0.12407143543205863
3328,2.3813631366372348,0.02759156037026604,-0.0786151856180419
3360,2.400719395354088,0.0275921565124614,-0.03284234686285863
3392,2.4200006051031764,0.027592345547761826,0.013250700705624965
3424,2.439195795617059,0.027592561640100446,0.05966754495741997
3456,2.4582993426863706,0.02759274418958181,0.10640896555338356
3488,2.4769398332295336,0.027625843664620904,0.15256928837503306
3520,2.495348605800877,0.027631126410413057,0.1987554630453035
3552,2.5135647711819953,0.02763208383560147,0.2450099122611576
3584,2.53159476800301,0.027632584123777573,0.2913363320033338
3616,2.5494290352760856,0.027633097918345687,0.3377379727114946
3648,2.566721247917346,0.027666143368800182,0.3833119978521735
3680,2.583687397500816,0.027671637992013713,0.4286635164486703
3712,2.600366802507083,0.027672873588149356,0.47383515761375966
3744,2.616769045895736,0.02767367395948852,0.518830055370453
3776,2.6328878172406593,0.02767443447496113,0.5636505794141152
3808,2.6487212529759,0.027675125189693273,0.6082969711990063
3840,2.663953246700364,0.02770787025859292,0.6518693884142107
3872,2.6787849114202764,0.02771344980216717,0.6949694955241021
3904,2.693256734067796,0.027714799893983996,0.7376398565154292
3936,2.7073797777339794,0.027715704259713248,0.7798836820991976
3968,2.721151704204507,0.027716601681630905,0.8217023738014686
4000,2.7345738393052326,0.027717441322240535,0.8630955519270115
4032,2.7476481174771625,0.02771818008998032,0.9040625887426734
4064,2.760377247367364,0.027718842739790812,0.9446026383271681
4096,2.7727651223921828,0.027719437544885837,0.9847144939931995
4128,2.784815689073878,0.027719948843696315,1.0243969416100396
4160,2.796532489954243,0.02772039315539864,1.0636489093818429
4192,2.807919501963269,0.027720798716345856,1.1024692119917392
4224,2.8189811924466714,0.027721166654463086,1.1408565307524927
4256,2.8297218319793735,0.027721493554437864,1.1788096213093444
4288,2.8401456022778433,0.027721794183462815,1.216327288379194
4320,2.8502570809631957,0.027722080226956127,1.2534082475447483
4352,2.8600610586134123,0.0277223487363422,1.2900511772653513
4384,2.8695622058744656,0.027722599245614085,1.326254814961331
4416,2.8787652491912934,0.02772283937428698,1.3620179125880914
4448,2.8876751770607694,0.02772307270254915,1.3973391826521133
4480,2.8962970841846953,0.027723296741253796,1.4322173406938978
4512,2.904636034019872,0.027723511275186727,1.4666511435310643
4544,2.912697167264346,0.027723719234497353,1.5006393638297177
4576,2.920485779652985,0.02772392141767465,1.5341807719181002
4608,2.928007238133262,0.027724116348340738,1.5672741576413411
4640,2.935266923261078,0.027724303573977822,1.599918346024608
4672,2.942464709909172,0.0276938349942341,1.633001763748899
4704,2.9494808766143037,0.027689204559540027,1.6659306500643658
4736,2.956295650974719,0.027688568810202353,1.6986564220327638
4768,2.962907916610945,0.02768829806953208,1.7311730242327588
4800,2.9693221637886547,0.02768800614823249,1.7634785520621599
4832,2.975542922122333,0.02768771315234904,1.7955717525206438
4864,2.981574558176707,0.027687455670216538,1.8274515043546926
4896,2.9873386926386414,0.027702502062665238,1.858671289920626
4928,2.9929529186970143,0.027693396918021973,1.8898577337081077
4960,2.9984366901286768,0.02768339131266393,1.9210623646787899
4992,3.0037923694454163,0.02767551281402488,1.9522900187228676
5024,3.009018982504908,0.02766951691909958,1.9835406535078712
5056,3.014261019155951,0.02763474778532341,2.0156978298337074
5088,3.019424632113213,0.027626443501707218,2.0481723666438576
5120,3.024490449788468,0.02762287508513308,2.0809150178198244
5152,3.0294541452897366,0.02762027867382008,2.1139196688562176
5184,3.0343162175028753,0.027618136384699947,2.1471845775293668
5216,3.039077321595565,0.02761636137772691,2.1807086205601816
5248,3.0437379683939527,0.027614911729997634,2.214490791386301
5280,3.048298562427162,0.02761374054952228,2.248530121864297
5312,3.052874081272009,0.02758292156133307,2.283704723022296
5344,3.057390099974446,0.02757745189718955,2.319428980655018
5376,3.061827946366529,0.027576052366895185,2.355653556870088
5408,3.0661815316938736,0.027575145039321406,2.3923722888122536
5440,3.0704494332124224,0.027574323169845275,2.4295834712765307
5472,3.0746297370637157,0.027573584306013588,2.4672860515298294
5504,3.0787201055345492,0.02757294746411501,2.505479081159467
5536,3.0827178516879474,0.02757240628734319,2.5441616374591343
5568,3.0866195581959817,0.027571944440986998,2.583332859432539
5600,3.0904211923927742,0.027571553129261597,2.622991933044904
5632,3.094118695358169,0.027571222627974873,2.663138024701848
5664,3.097707578924645,0.02757093445770386,2.7037703139222984
5696,3.101108721817411,0.02760007242448941,2.7440196750539876
5728,3.1043620619178984,0.02760448213829607,2.784462915910521
5760,3.1074794118748588,0.027605066351536152,2.8251474625165054
5792,3.1104608885081846,0.027605299873048356,2.8660779881157588
5824,3.113299995368034,0.027605552411804672,2.9072546135048505
5856,3.115991041748953,0.027605798469279894,2.948676791688346
5888,3.11852876650352,0.027605998439741923,2.9903438521504286
5920,3.1209078916411137,0.027606143741849526,3.0322550913189303
5952,3.123123124770527,0.027606234189167363,3.074409758027356
5984,3.1251270498124066,0.027635279627213266,3.115947666238422
6016,3.126937429135951,0.02763983866640152,3.157439496055001
6048,3.1285666766620603,0.02764057621478936,3.1989323733749035
6080,3.1300160524010905,0.02764092946930176,3.2404310472517612
6112,3.131279662298872,0.02764127078444007,3.281935446047413
6144,3.1323523604061787,0.027641575532156258,3.3234448667294814
6176,3.133229516017736,0.02764181459073866,3.3649584831016788
6208,3.1338924315466676,0.02767072996415698,3.4056230149305198
6240,3.1343421962109184,0.02767538289527702,3.446004220900724
6272,3.134593283463542,0.02767624217026113,3.4861491304495553
6304,3.134649172599054,0.027676710379358503,3.5260626121044876
6336,3.134506360080214,0.027677172632359845,3.565744489738005
6368,3.1341626179279296,0.02767760217878572,3.605193985597175
6400,3.1336162245226946,0.02767796115775334,3.6444102335783226
6432,3.1328659135564774,0.027678258022461634,3.6833923546254974
6464,3.131911314737989,0.027678504899050948,3.722139456332206
6496,3.1307524874129196,0.027678695332281948,3.7606506256757504
6528,3.1293893005650646,0.027678833308447955,3.798924924758602
6560,3.1278217317614767,0.027678939603159675,3.8369613997331697
6592,3.12605023720155,0.027679024782502653,3.8747590884787426
6624,3.1241186625205786,0.02770742790832584,3.911477205636393
6656,3.121993982185733,0.027711946705355768,3.9476725642450727
6688,3.1196919554764575,0.02771278768445798,3.9833925687134633
6720,3.117220115671469,0.027713294526186334,4.018642444919019
6752,3.1145803697983614,0.027713826734172237,4.053422107973235
6784,3.1117080268054917,0.027686153735151625,4.08856575489121
6816,3.1086554979461685,0.027682196221218418,4.1235185036997235
6848,3.1054127603366575,0.027681857218825063,4.1582311920635915
6880,3.101977666331386,0.027681815518363198,4.192696980549836
6912,3.098353866010631,0.027681708755573547,4.22691448910362
6944,3.094544702856215,0.02768156373424345,4.260882908771624
6976,3.0905532937709084,0.027681430176536258,4.294601481892385
7008,3.0863828634018873,0.027681325031437186,4.328069470314918
7040,3.082036431589119,0.027681244613368478,4.3612861219776375
7072,3.07751669896963,0.027681190526772967,4.394250664090758
7104,3.072826425806152,0.02768116885224859,4.426962349789834
7136,3.06796864658655,0.027681176892883262,4.459420485752468
7168,3.0629464589350155,0.027681205264345258,4.4916244082094705
7200,3.057762863333177,0.02768124954185302,4.523573464782073
7232,3.0524209077557685,0.0276813108547349,4.55526703655321
7264,3.046923827267035,0.027681388003961117,4.586704559470634
7296,3.0412749586463885,0.027681476016106123,4.617885513152042
7328,3.0355536221964217,0.027695557116544818,4.648401330629219
7360,3.029653028017888,0.027687416521477236,4.678827063233475
7392,3.02357403617853,0.0276784214490421,4.7092129147596875
7424,3.017315943849672,0.027671346108045808,4.7395630486019895
7456,3.0108764264424916,0.027665969621049228,4.769876170072102
7488,3.0042541320375937,0.02766185288675939,4.800150635035616
7520,2.9974485769702106,0.027658664281470992,4.830384983624428
7552,2.990274472705833,0.02762832657735281,4.861383415895069
7584,2.982857572821352,0.027621960615494094,4.8926105653783365
7616,2.975194868397042,0.027619639199205452,4.924016491331275
7648,2.967282929445628,0.027617971117766198,4.955593512630273
7680,2.959121254206791,0.027616535443787893,4.98733950731664
7712,2.9507094613401827,0.027615302849741778,5.019252987605914
7744,2.942047226996046,0.027614266462993222,5.051332553238878
7776,2.9331341125447166,0.027613398837336683,5.0835767795499525
7808,2.9239691907774734,0.02761266929410818,5.115984114299785
7840,2.9145511146238583,0.02761205881775606,5.148552891706036
7872,2.904878475594746,0.027611551409486554,5.181281421486347
7904,2.894949839131354,0.027611124743926865,5.214167993632275
7936,2.884763499357687,0.027610757473775206,5.247210807418857
7968,2.874317455101091,0.02761043818182004,5.280407961385983
8000,2.8636096211614555,0.027610159845174134,5.313757509601458
8032,2.8526378754422126,0.027609911792701038,5.347257470632899
8064,2.8413999069243654,0.027609682987097525,5.380905778043617
8096,2.8298931826997844,0.027609468174625666,5.414700267110414
8128,2.818115074572534,0.027609264935482387,5.448638710538412
8160,2.8060628949726016,0.027609068279893186,5.4827188254551285
8192,2.7937338076313756,0.027608872539989726,5.516938240541838
8224,2.7811248094539573,0.027608675356276053,5.551294486911039
8256,2.7682328074737605,0.02760847588016392,5.585785020587805
8288,2.7550546381250367,0.027608271487950715,5.620407225063832
8320,2.7415859277998935,0.027608059364625882,5.655157953113452
8352,2.7278146177559965,0.027607841346246997,5.690030823586899
8384,2.71374809246519,0.027607624378856374,5.725027074670885
8416,2.699395028753261,0.02760740258721437,5.760149039708127
8448,2.684758900637748,0.027607207764686538,5.795397002777459
8480,2.669839916996251,0.027607039826368498,5.830769846660632
8512,2.654635517556078,0.02760686089817707,5.8662652132181075
8544,2.639140485376775,0.027606658271806278,5.901879531215629
8576,2.623347984394345,0.027606443168891905,5.937608414184762
8608,2.607585936384106,0.02763393908383,5.972696536010239
8640,2.591615933573231,0.027638063418005142,6.007633160506945
8672,2.575424390297012,0.027638541529084702,6.042460940935287
8704,2.5590018450500285,0.02763863154184513,6.077179757920689
8736,2.542331649652203,0.02763866855935357,6.111780361184105
8768,2.5253947710146134,0.027638566264398007,6.146251399148837
8800,2.5081685472154316,0.02763823659044152,6.180579435576963
8832,2.4906268871803587,0.02763762295079654,6.214749413221473
8864,2.472742681551377,0.027636595045370357,6.248747154162324
8896,2.4580700074971737,0.02788413881250639,6.275968284518695
8928,2.4472466518111715,0.028111669030021796,6.295953694676864
8960,2.44056737598256,0.028285329728802468,6.308891775966531
8992,2.4381721875171327,0.028418536889298684,6.314893196867088
9024,2.437614512153912,0.02841462000434552,6.316232117181677
9056,2.4375656256459757,0.02829147794648661,6.316261693015426
9088,2.4375744452562222,0.02815163917612906,6.316200114932964
9120,2.4375861114866892,0.02804055887750851,6.316144582289573
9152,2.4375952379060304,0.02795590966135413,6.316101180830831
9184,2.4376020631935535,0.027891033064619777,6.316067583352238
9216,2.4376072015989654,0.027840772057024774,6.31604140448113
9248,2.4376111144671007,0.027801481992819087,6.316020863316962
9280,2.437614121179586,0.027770562876158186,6.31600465831869
9312,2.437616445907548,0.0277461151892945,6.315991823519618
9344,2.4376182503151074,0.02772671962380155,6.315981629057437
9376,2.4376196539171904,0.027711296170779005,6.315973515222922
9408,2.437620746810462,0.027699011464694008,6.315967047884908
9440,2.437621597890288,0.027689215784714973,6.31596188745786
9472,2.437622260361749,0.027681398788044605,6.315957766664078
9504,2.4376227755790745,0.027675157472522676,6.315954474191526
9536,2.4376231758126865,0.027670172405498555,6.315951842432857
9568,2.437623486299517,0.0276661897311501,6.315949738134793
9600,2.4376237267948047,0.027663007341448026,6.315948055177156
9632,2.437623912764596,0.027660464125390513,6.3159467089439305
9664,2.437624056311649,0.027658431541712162,6.315945631904853
9696,2.437624166899118,0.027656806973648442,6.315944770129553
9728,2.43762425191839,0.027655508466960355,6.315944080527272
9760,2.437624317135568,0.02765447055107412,6.315943528655238
9792,2.4376243670428077,0.02765364091364594,6.315943086975157
9824,2.4376244051347657,0.02765297775053767,6.315942733464186
9856,2.437624434126016,0.027652447651977885,6.315942450507161
9888,2.437624456121868,0.027652023915305773,6.315942224012435
9920,2.4376244727524385,0.027651685197589593,6.315942042705762
9952,2.4376244852777416,0.027651414439327178,6.3159418975661366
9984,2.4376244946699623,0.027651198004500173,6.315941781374868
10016,2.437624501677778,0.027651024993397107,6.315941688355102
10048,2.4376245068765723,0.027650886693433276,6.315941613883546
10080,2.43762451070759,0.02765077614022949,6.315941554259919
10112,2.4376245135084162,0.027650687766800464,6.315941506522542
10144,2.437624515536671,0.027650617123145926,6.315941468300798
